0 4
1 0
2 0
3 0
4 0
5 0
6 0
7 1900
8 0
9 0
10 0
11 0
12 0
13 0
14 0
15 0
16 0
17 2434
18 0
19 0
20 0
21 0
22 0
23 0
24 0
25 0
26 0
27 0
28 2985
29 0
30 0
31 0
32 0
33 0
34 0
35 0
36 0
37 0
38 0
39 0
40 3023
41 0
42 0
43 0
44 0
45 0
46 1439
47 0
48 448
49 309
50 416
51 213
52 285
53 175
54 365
55 198
56 178
57 340
58 273
59 248
60 264
61 235
62 300
63 163
64 357
65 217
66 283
67 184
68 270
69 180
70 364
71 202
72 279
73 325
74 0
75 333
76 410
77 0
78 399
79 0
80 470
81 0
82 502
83 0
84 542
85 307
86 0
87 581
88 0
89 579
90 0
91 0
92 627
93 0
94 666
95 0
96 0
97 702
98 0
99 0
100 719
101 0
102 0
103 784
104 0
105 0
106 808
107 0
108 0
109 851
110 0
111 0
112 0
113 828
114 0
115 0
116 788
117 0
118 0
119 771
120 0
121 0
122 732
123 0
124 711
125 0
126 375
127 0
128 0
129 781
130 0
131 0
132 859
133 0
134 0
135 0
136 1048
137 0
138 0
139 0
140 0
141 1118
142 0
143 0
144 0
145 1135
146 0
147 0
148 0
149 1083
150 0
151 0
152 0
153 0
154 1260
155 0
156 0
157 0
158 0
159 0
160 1412
161 0
162 0
163 0
164 0
165 0
166 1673
167 0
168 0
169 0
170 0
171 0
172 0
173 0
174 2137
175 0
176 0
177 0
178 0
179 0
180 0
181 0
182 0
183 0
184 2380
185 0
186 0
187 0
188 0
189 0
190 0
191 0
192 0
193 2291
194 0
195 0
196 0
197 0
198 0
199 0
200 1952
201 0
202 0
203 0
204 924
205 0
206 0
207 0
208 0
209 0
210 1507
211 0
212 0
213 0
214 0
215 1378
216 0
217 0
218 0
219 0
220 1301
221 0
222 0
223 0
224 0
225 1336
226 0
227 0
228 0
229 0
230 1321
231 0
232 0
233 0
234 0
235 0
236 1382
237 0
238 0
239 0
240 0
241 1274
242 0
243 0
244 0
245 1084
246 0
247 0
248 769
249 0
250 617
251 231
252 266
253 270
254 244
255 0
