0 0
1 0
2 4
3 0
4 1900
5 0
6 2434
7 0
8 2985
9 0
10 3023
11 0
12 1439
13 0
14 448
15 0
16 309
17 0
18 216
19 0
20 200
21 0
22 213
23 0
24 86
25 0
26 199
27 0
28 175
29 0
30 175
31 0
32 190
33 0
34 198
35 0
36 178
37 0
38 166
39 0
40 174
41 0
42 131
43 0
44 142
45 0
46 131
47 0
48 117
49 0
50 138
51 0
52 126
53 0
54 70
55 0
56 165
57 0
58 140
59 0
60 160
61 0
62 163
63 0
64 128
65 0
66 129
67 0
68 100
69 0
70 98
71 0
72 119
73 0
74 89
75 0
76 99
77 0
78 95
79 0
80 116
81 0
82 68
83 0
84 133
85 0
86 137
87 0
88 180
89 0
90 185
91 0
92 179
93 0
94 202
95 0
96 279
97 0
98 325
99 0
100 333
101 0
102 410
103 0
104 399
105 0
106 470
107 0
108 502
109 0
110 542
111 0
112 307
113 0
114 581
115 0
116 579
117 0
118 627
119 0
120 666
121 0
122 702
123 0
124 719
125 0
126 784
127 0
128 808
129 851
130 0
131 828
132 0
133 788
134 0
135 771
136 0
137 732
138 0
139 711
140 0
141 375
142 0
143 781
144 0
145 859
146 0
147 1048
148 0
149 1118
150 0
151 1135
152 0
153 1083
154 0
155 1260
156 0
157 1412
158 0
159 1673
160 0
161 2137
162 0
163 2380
164 0
165 2291
166 0
167 1952
168 0
169 924
170 0
171 1507
172 0
173 1378
174 0
175 1301
176 0
177 1336
178 0
179 1321
180 0
181 1382
182 0
183 1274
184 0
185 1084
186 0
187 769
188 0
189 415
190 0
191 202
192 0
193 132
194 0
195 99
196 0
197 80
198 0
199 28
200 0
201 67
202 0
203 44
204 0
205 47
206 0
207 43
208 0
209 41
210 0
211 40
212 0
213 24
214 0
215 50
216 0
217 32
218 0
219 17
220 0
221 23
222 0
223 31
224 0
225 33
226 0
227 36
228 0
229 13
230 0
231 29
232 0
233 25
234 0
235 26
236 0
237 23
238 0
239 28
240 0
241 48
242 0
243 36
244 0
245 17
246 0
247 9
248 0
249 11
250 0
251 19
252 0
253 18
254 0
255 0
