0 0
1 0
2 0
3 0
4 0
5 0
6 0
7 0
8 0
9 0
10 0
11 0
12 0
13 0
14 0
15 0
16 0
17 0
18 0
19 0
20 0
21 0
22 0
23 0
24 0
25 0
26 0
27 0
28 0
29 0
30 0
31 0
32 0
33 0
34 0
35 0
36 0
37 0
38 0
39 0
40 0
41 0
42 0
43 0
44 0
45 0
46 0
47 0
48 0
49 0
50 0
51 0
52 0
53 0
54 0
55 0
56 0
57 0
58 0
59 0
60 0
61 0
62 0
63 0
64 0
65 0
66 0
67 0
68 0
69 0
70 0
71 0
72 0
73 0
74 0
75 0
76 0
77 0
78 0
79 0
80 0
81 0
82 0
83 0
84 0
85 0
86 0
87 0
88 0
89 0
90 0
91 0
92 0
93 0
94 0
95 0
96 0
97 0
98 0
99 0
100 0
101 0
102 0
103 0
104 0
105 0
106 0
107 0
108 0
109 0
110 0
111 0
112 0
113 0
114 0
115 0
116 0
117 0
118 0
119 0
120 0
121 0
122 0
123 0
124 0
125 0
126 4
127 1900
128 2434
129 2985
130 3023
131 1439
132 448
133 309
134 216
135 200
136 213
137 86
138 199
139 175
140 175
141 190
142 198
143 178
144 166
145 174
146 131
147 142
148 131
149 117
150 138
151 126
152 70
153 165
154 140
155 160
156 163
157 128
158 129
159 100
160 98
161 119
162 89
163 99
164 95
165 116
166 68
167 133
168 137
169 180
170 185
171 179
172 202
173 279
174 325
175 333
176 410
177 399
178 470
179 502
180 542
181 307
182 581
183 579
184 627
185 666
186 702
187 719
188 784
189 808
190 851
191 828
192 788
193 771
194 732
195 711
196 375
197 781
198 859
199 1048
200 1118
201 1135
202 1083
203 1260
204 1412
205 1673
206 2137
207 2380
208 2291
209 1952
210 924
211 1507
212 1378
213 1301
214 1336
215 1321
216 1382
217 1274
218 1084
219 769
220 415
221 202
222 132
223 99
224 80
225 28
226 67
227 44
228 47
229 43
230 41
231 40
232 24
233 50
234 32
235 17
236 23
237 31
238 33
239 36
240 13
241 29
242 25
243 26
244 23
245 28
246 48
247 36
248 17
249 9
250 11
251 19
252 18
253 4
254 0
255 0
